Time,Voltage
20,2.47
656,2.18
1260,1.91
1908,1.65
2568,1.43
3224,1.24
3868,1.07
4516,0.92
5168,0.80
5808,0.70
6456,0.61
7100,0.52
7748,0.45
8392,0.39
9032,0.34
9680,0.30
10328,0.26
11020,0.23
11724,0.21
12428,0.17
13128,0.14
13828,0.13
14524,0.11
15224,0.10
15924,0.08
16628,0.64
17320,1.15
18020,1.62
18732,2.05
19432,2.41
20136,2.74
20844,3.04
21556,2.61
22256,2.22
22964,1.89
23676,1.60
24372,1.38
25084,1.18
25784,1.00
26480,1.41
27188,1.88
27900,2.27
28600,2.62
29304,2.93
30012,3.20
30724,3.43
31440,3.07
32144,2.62
32852,2.24
33556,1.92
34268,1.64
34980,1.40
35676,1.21
36392,1.51
37100,1.98
37808,2.37
38512,2.70
39220,3.00
39920,3.26
40624,3.48
41336,3.20
42044,2.73
42752,2.35
43460,2.01
44168,1.72
44872,1.47
45580,1.26
46300,1.49
47000,1.96
47704,2.35
48412,2.69
49116,2.99
49824,3.26
50532,3.48
51252,3.27
51948,2.80
52660,2.39
53372,2.05
54064,1.75
54772,1.50
55480,1.29
56188,1.42
56892,1.90
57604,2.31
58312,2.66
59016,2.97
59724,3.23
60440,3.45
61148,3.34
61864,2.84
62572,2.43
63280,2.08
63984,1.79
64692,1.52
65396,1.30
66112,1.38
66820,1.87
67520,2.27
68224,2.63
68932,2.94
69644,3.21
70352,3.44
71068,3.39
71780,2.89
72484,2.48
73196,2.12
73904,1.81
74608,1.55
75316,1.32
76036,1.34
76744,1.83
77448,2.24
78156,2.61
78872,2.91
79576,3.19
80288,3.42
80996,3.44
81696,2.94
82404,2.51
83116,2.15
83824,1.84
84532,1.57
85244,1.34
85952,1.29
86660,1.80
87372,2.20
88076,2.57
88780,2.89
89492,3.16
90208,3.41
90912,3.61
91624,2.98
92332,2.54
93036,2.18
93748,1.86
94460,1.60
95164,1.36
95872,1.14
96580,1.74
97284,2.17
97992,2.54
98700,2.86
99412,3.14
100120,3.39
100880,3.61
101644,2.95
102396,2.50
103148,2.11
103916,1.79
104672,1.51
105428,1.29
106184,1.49
106944,1.98
107704,2.40
108456,2.76
109212,3.07
109964,3.34
110728,3.57
111488,3.04
112244,2.58
113000,2.17
113760,1.84
114516,1.55
115272,1.31
116040,1.39
116800,1.91
117556,2.33
118324,2.70
119080,3.02
119836,3.29
120588,3.53
121360,3.11
122124,2.63
122888,2.22
123644,1.88
124400,1.60
125160,1.35
125912,1.30
126668,1.83
127424,2.27
128184,2.65
128936,2.97
129688,3.26
130448,3.48
131212,3.22
131972,2.71
132740,2.30
133496,1.95
134256,1.64
135008,1.39
135768,1.18
136528,1.76
137288,2.20
138040,2.60
138804,2.92
139560,3.21
140312,3.47
141076,3.31
141836,2.79
142600,2.36
143356,2.00
144112,1.69
144872,1.42
145632,1.21
146392,1.68
147148,2.14
147908,2.54
148664,2.88
149416,3.18
150172,3.43
150948,3.39
151704,2.85
152460,2.42
153228,2.04
153980,1.73
154748,1.46
155500,1.23
156272,1.61
157036,2.09
157796,2.48
158548,2.83
159308,3.13
160068,3.39
160832,3.47
161596,2.92
162356,2.46
163112,2.09
163868,1.77
164616,1.49
165376,1.27
166140,1.53
166900,2.01
167652,2.42
168416,2.78
169176,3.08
169924,3.35
170684,3.58
171448,3.01
172204,2.53
172964,2.15
173716,1.83
174476,1.53
175232,1.30
175992,1.43
176756,1.93
177512,2.36
178272,2.72
179028,3.04
179788,3.32
180552,3.54
181320,3.08
182068,2.61
182836,2.21
183596,1.86
184352,1.57
185108,1.33
185872,1.35
186632,1.87
187388,2.30
188140,2.68
188896,3.00
189656,3.28
190412,3.52
191168,3.18
191932,2.68
192688,2.27
193444,1.92
194196,1.63
194964,1.37
195720,1.14
196472,1.78
197232,2.23
197996,2.62
198756,2.94
199508,3.23
200268,3.48
201040,3.26
201800,2.75
202556,2.33
203324,1.97
204080,1.66
204832,1.41
205588,1.20
206348,1.71
207108,2.17
207868,2.57
208628,2.90
209384,3.19
210144,3.43
210904,3.34
211660,2.82
212424,2.39
213184,2.01
213936,1.72
214692,1.45
215456,1.23
216220,1.64
216976,2.11
217740,2.50
218496,2.85
219256,3.15
220012,3.41
220776,3.44
221536,2.88
222296,2.45
223052,2.08
223804,1.76
224560,1.49
225312,1.27
226072,1.55
226832,2.03
227588,2.44
228348,2.80
229100,3.09
229860,3.37
230620,3.60
231372,3.00
232116,2.55
232872,2.15
233636,1.82
234388,1.54
235144,1.30
235912,1.45
236676,1.95
237428,2.37
238196,2.73
238956,3.05
239716,3.32
240476,3.56
241248,3.07
242004,2.59
242768,2.19
243524,1.85
244280,1.57
245040,1.33
245808,1.38
246560,1.89
247320,2.33
248084,2.69
248840,3.01
249592,3.28
250352,3.52
251120,3.13
251876,2.66
252636,2.24
253404,1.90
254160,1.61
254916,1.36
255676,1.28
256444,1.82
257200,2.27
257956,2.63
258708,2.96
259464,3.24
260224,3.48
260984,3.24
261744,2.73
262508,2.31
263268,1.96
264020,1.65
264776,1.40
265536,1.19
266300,1.75
267060,2.20
267824,2.59
268584,2.92
269336,3.21
270092,3.47
270864,3.30
271624,2.80
272380,2.36
273140,2.00
273896,1.69
274656,1.43
275412,1.20
276172,1.68
276936,2.13
277700,2.54
278452,2.87
279204,3.17
279972,3.43
280736,3.39
281492,2.86
282252,2.42
283008,2.05
283764,1.74
284516,1.46
285280,1.25
286048,1.60
286808,2.06
287556,2.47
288312,2.82
289072,3.13
289824,3.38
290580,3.61
291340,2.94
292096,2.49
292848,2.11
293604,1.79
294368,1.51
295132,1.28
295896,1.50
296656,2.00
297416,2.41
298180,2.77
298932,3.08
299684,3.35
300448,3.58
301216,3.02
301968,2.56
302732,2.17
303492,1.83
304252,1.55
305004,1.30
305768,1.42
306532,1.93
307292,2.37
308052,2.72
308812,3.04
309564,3.30
310320,3.54
311080,3.09
311836,2.62
312596,2.22
313364,1.88
314112,1.59
314872,1.34
315640,1.33
316396,1.86
317156,2.29
317920,2.67
318684,3.00
319432,3.27
320188,3.52
320960,3.19
321720,2.69
322472,2.27
323228,1.92
323996,1.63
324752,1.37
325508,1.14
326272,1.79
327032,2.24
327796,2.62
328548,2.95
329312,3.25
330076,3.48
330836,3.25
331596,2.75
332364,2.33
333124,1.96
333880,1.66
334632,1.40
335392,1.18
336156,1.73
336924,2.18
337676,2.57
338432,2.91
339192,3.20
339948,3.45
340712,3.33
341476,2.81
342236,2.38
342996,2.01
343744,1.71
344508,1.44
345272,1.22
346032,1.65
346788,2.12
347548,2.52
348312,2.86
349068,3.16
349824,3.41
350592,3.41
351356,2.87
352116,2.43
352884,2.06
353636,1.75
354396,1.48
355148,1.24
355920,1.58
356680,2.06
357436,2.46
358188,2.83
358956,3.12
359716,3.38
360472,3.61
361228,2.95
361992,2.49
362752,2.12
363508,1.78
364268,1.51
365028,1.27
365792,1.51
366548,2.00
367304,2.41
368068,2.78
368832,3.08
369580,3.36
370340,3.58
371112,3.02
371868,2.56
372628,2.17
373388,1.82
374144,1.54
374904,1.31
375668,1.44
376436,1.94
377192,2.36
377956,2.73
378708,3.04
379468,3.32
380236,3.55
381000,3.08
381748,2.61
382516,2.20
383280,1.86
384032,1.57
384784,1.33
385552,1.34
386312,1.87
387068,2.31
387828,2.69
388592,3.00
389344,3.27
390100,3.51
390868,3.16
391636,2.67
392396,2.25
393148,1.91
393900,1.62
394668,1.36
395436,1.14
396184,1.79
396940,2.24
397696,2.63
398460,2.95
399212,3.25
399980,3.48
400752,3.24
401512,2.73
402268,2.32
403032,1.96
403796,1.65
404552,1.39
405308,1.19
406068,1.74
406836,2.20
407584,2.57
408340,2.91
409108,3.21
409876,3.47
410648,3.30
411404,2.79
412160,2.36
412920,2.00
413664,1.69
414416,1.44
415176,1.21
415940,1.68
416700,2.12
417452,2.53
418216,2.87
418976,3.17
419732,3.43
420500,3.40
421256,2.86
422016,2.42
422772,2.06
423532,1.74
424288,1.47
425048,1.24
425808,1.59
426568,2.07
427324,2.47
428084,2.82
428836,3.12
429604,3.38
430360,3.61
431124,2.94
431884,2.48
432648,2.11
433412,1.78
434164,1.50
434920,1.28
435688,1.52
436448,2.00
437200,2.41
437956,2.77
438720,3.08
439476,3.35
440228,3.57
440992,3.01
441752,2.55
442512,2.16
443268,1.82
444032,1.54
444792,1.30
445560,1.44
446316,1.93
447084,2.37
447844,2.73
448604,3.04
449356,3.31
450124,3.55
450888,3.09
451644,2.61
452396,2.22
453160,1.86
453920,1.58
454680,1.33
455444,1.36
456204,1.87
456960,2.31
457716,2.68
458476,3.01
459236,3.29
460000,3.53
460764,3.16
461524,2.66
462288,2.26
463048,1.91
463804,1.62
464564,1.36
465328,1.14
466088,1.81
466844,2.26
467604,2.64
468360,2.96
469120,3.25
469876,3.49
470648,3.23
471412,2.73
472180,2.30
472932,1.96
473692,1.65
474448,1.40
475208,1.18
475964,1.75
476728,2.20
477488,2.59
478240,2.92
478996,3.21
479764,3.46
480536,3.30
481296,2.78
482048,2.36
482808,1.99
483568,1.69
484324,1.43
485076,1.20
485844,1.68
486608,2.14
487364,2.54
488116,2.87
488872,3.17
489636,3.43
490404,3.40
491156,2.85
491924,2.41
492692,2.05
493436,1.73
494204,1.46
494968,1.23
495732,1.61
496492,2.09
497248,2.49
498008,2.84
498768,3.13
499524,3.40
500288,3.48
501056,2.91
501820,2.46
502580,2.08
503340,1.76
504096,1.49
504856,1.27
505616,1.54
506376,2.03
507132,2.43
507892,2.80
508652,3.10
509412,3.37
510172,3.59
510932,2.98
511692,2.52
512460,2.14
513224,1.80
513976,1.53
514732,1.29
515500,1.48
516264,1.97
517020,2.39
517772,2.75
518536,3.06
519292,3.33
520044,3.56
520816,3.05
521572,2.58
522328,2.19
523084,1.85
523840,1.56
524600,1.32
525368,1.39
526124,1.89
526880,2.33
527644,2.70
528400,3.01
529152,3.30
529912,3.53
530680,3.13
531436,2.65
532196,2.24
532964,1.91
533724,1.61
534476,1.36
535240,1.29
536000,1.83
536760,2.27
537516,2.64
538268,2.97
539036,3.26
539792,3.49
540552,3.23
541316,2.72
542084,2.29
542848,1.94
543604,1.65
544360,1.39
545120,1.17
545880,1.75
546636,2.20
547392,2.60
548156,2.93
548916,3.22
549668,3.47
550440,3.29
551200,2.77
551960,2.35
552716,1.99
553480,1.67
554244,1.42
554996,1.20
555760,1.70
556520,2.15
557284,2.55
558036,2.88
558788,3.18
559548,3.43
560312,3.37
561068,2.84
561828,2.41
562588,2.04
563348,1.71
564108,1.46
564872,1.23
565636,1.63
566400,2.10
567152,2.49
567912,2.84
568672,3.14
569436,3.40
570196,3.46
570956,2.91
571716,2.45
572480,2.08
573228,1.77
573996,1.48
574752,1.26
575508,1.54
576268,2.03
577028,2.43
577788,2.79
578540,3.10
579292,3.37
580056,3.59
580816,2.99
581572,2.54
582324,2.15
583092,1.82
583860,1.53
584612,1.30
585380,1.47
586148,1.96
586908,2.38
587660,2.75
588420,3.05
589172,3.33
589940,3.56
590696,3.06
591452,2.59
592216,2.19
592976,1.86
593732,1.57
594500,1.31
595264,1.38
596024,1.90
596780,2.33
597540,2.70
598308,3.03
599060,3.29
599820,3.54
600592,3.12
601356,2.63
602124,2.22
602884,1.88
603648,1.59
604408,1.34
605168,1.32
605924,1.86
606692,2.29
607448,2.67
608204,2.99
608964,3.27
609720,3.50
610484,3.18
611244,2.69
612004,2.28
612764,1.93
613524,1.62
614288,1.39
615052,1.15
615808,1.79
616568,2.24
617324,2.61
618092,2.95
618848,3.23
619612,3.48
620376,3.25
621140,2.74
621908,2.32
622668,1.96
623428,1.66
624192,1.40
624952,1.19
625716,1.74
626476,2.19
627244,2.58
628000,2.92
628760,3.21
629520,3.45
630288,3.31
631052,2.79
631816,2.36
632572,2.00
633336,1.69
634100,1.43
634852,1.21
635616,1.69
636376,2.15
637140,2.55
637900,2.89
638660,3.19
639428,3.44
640204,3.37
640956,2.83
641708,2.40
642472,2.03
643228,1.72
643988,1.45
644748,1.24
645520,1.63
646280,2.11
647036,2.51
647804,2.85
648560,3.15
649324,3.41
650072,3.46
650836,2.90
651592,2.46
652356,2.07
653100,1.76
653864,1.50
654628,1.26
655388,1.55
656148,2.03
656900,2.43
657656,2.80
658412,3.10
659164,3.35
659924,3.59
660688,2.99
661440,2.53
662196,2.15
662956,1.81
663716,1.53
664468,1.30
665236,1.45
665996,1.96
666752,2.38
667504,2.73
668268,3.05
669028,3.32
669788,3.55
670544,3.07
671300,2.60
672064,2.21
672828,1.87
673580,1.58
674344,1.34
675112,1.37
675864,1.89
676616,2.31
677380,2.69
678144,3.02
678892,3.29
679648,3.52
680416,3.16
681176,2.67
681932,2.25
682692,1.92
683460,1.61
684220,1.36
684980,1.28
685740,1.81
686500,2.26
687264,2.64
688020,2.97
688780,3.25
689544,3.49
690312,3.23
691072,2.72
691836,2.29
692600,1.93
693360,1.64
694116,1.39
694872,1.17
695632,1.75
696396,2.22
697156,2.60
697920,2.94
698680,3.22
699444,3.47
700208,3.27
700968,2.77
701728,2.34
702488,1.98
703244,1.67
704012,1.41
704768,1.20
705528,1.70
706284,2.16
707044,2.56
707808,2.88
708564,3.18
709316,3.44
710088,3.35
710852,2.83
711604,2.39
712364,2.02
713124,1.72
713892,1.45
714652,1.23
715416,1.63
716180,2.11
716948,2.52
717708,2.85
718464,3.15
719228,3.41
719992,3.42
720752,2.89
721512,2.44
722272,2.07
723028,1.75
723780,1.48
724544,1.26
725312,1.58
726072,2.05
726824,2.47
727588,2.82
728344,3.12
729108,3.39
729860,3.60
730624,2.95
731388,2.50
732140,2.12
732904,1.79
733664,1.51
734428,1.28
735192,1.50
735948,1.99
736708,2.41
737468,2.76
738220,3.07
738968,3.34
739732,3.57
740504,3.03
741256,2.57
742016,2.17
742780,1.84
743536,1.56
744292,1.31
745068,1.42
745824,1.93
746588,2.36
747340,2.72
748108,3.04
748868,3.31
749636,3.55
750392,3.09
751148,2.61
751916,2.21
752676,1.87
753436,1.58
754200,1.33
754968,1.36
755732,1.88
756492,2.31
757252,2.68
758020,3.00
758764,3.28
759524,3.52
760296,3.14
761060,2.66
761820,2.25
762580,1.90
763344,1.61
764108,1.36
764876,1.30
765640,1.84
766404,2.27
767160,2.65
767920,2.98
768676,3.26
769440,3.51
770208,3.20
770964,2.70
771724,2.29
772488,1.94
773248,1.64
774004,1.38
774760,1.16
775520,1.76
776284,2.21
777040,2.61
777804,2.94
778568,3.23
779332,3.47
780100,3.27
780860,2.76
781616,2.34
782368,1.97
783124,1.67
783892,1.42
784652,1.19
785408,1.71
786176,2.17
786940,2.57
787708,2.90
788460,3.20
789212,3.45
789984,3.34
790748,2.82
791500,2.38
792260,2.02
793020,1.71
793788,1.44
794548,1.22
795312,1.66
796072,2.12
796836,2.53
797596,2.86
798356,3.16
799128,3.43
799896,3.39
800652,2.86
801416,2.43
802180,2.06
802932,1.74
803692,1.47
804460,1.24
805220,1.60
805984,2.08
806732,2.49
807496,2.83
808260,3.13
809020,3.39
809780,3.62
810540,2.93
811300,2.48
812056,2.10
812812,1.78
813568,1.50
814332,1.27
815096,1.52
815852,2.01
816616,2.43
817380,2.79
818140,3.09
818892,3.36
819660,3.59
820428,2.99
821184,2.54
821936,2.15
822696,1.81
823456,1.54
824212,1.30
824972,1.45
825736,1.96
826496,2.38
827248,2.74
828008,3.05
828764,3.31
829524,3.56
830288,3.07
831044,2.60
831808,2.19
832572,1.86
833324,1.57
834080,1.33
834848,1.37
835608,1.89
836360,2.32
837120,2.69
837880,3.00
838628,3.28
839388,3.51
840156,3.16
840912,2.67
841668,2.26
842428,1.92
843184,1.62
843948,1.36
844708,1.14
845464,1.81
846228,2.25
846996,2.62
847748,2.97
848516,3.25
849276,3.49
850040,3.23
850796,2.73
851564,2.31
852332,1.96
853088,1.64
853844,1.39
854600,1.17
855364,1.75
856128,2.20
856884,2.59
857640,2.92
858400,3.21
859164,3.46
859932,3.30
860692,2.79
861448,2.36
862204,2.00
862952,1.70
863716,1.43
864476,1.21
865232,1.68
865988,2.14
866748,2.53
867504,2.88
868260,3.16
869012,3.43
869788,3.40
870544,2.86
871300,2.42
872060,2.05
872812,1.74
873572,1.47
874324,1.25
875096,1.59
875856,2.07
876612,2.47
877372,2.83
878140,3.12
878900,3.39
879664,3.60
880420,2.93
881180,2.47
881936,2.10
882696,1.77
883452,1.50
884220,1.27
884992,1.53
885748,2.01
886504,2.42
887268,2.78
888024,3.08
888772,3.35
889532,3.58
890304,3.00
891060,2.54
891812,2.15
892572,1.82
893340,1.54
894104,1.30
894864,1.45
895628,1.95
896388,2.38
897152,2.74
897908,3.05
898668,3.33
899436,3.56
900200,3.06
900952,2.60
901716,2.19
902480,1.85
903240,1.57
903996,1.33
904768,1.39
905528,1.90
906288,2.34
907044,2.69
907800,3.02
908556,3.30
909324,3.54
910080,3.13
910844,2.64
911604,2.24
912356,1.90
913116,1.59
913880,1.35
914648,1.29
915404,1.82
916156,2.27
916924,2.65
917684,2.98
918436,3.26
919196,3.50
919972,3.19
920740,2.68
921500,2.28
922260,1.93
923028,1.63
923792,1.37
924548,1.14
925312,1.79
926072,2.23
926836,2.62
927596,2.95
928364,3.23
929124,3.48
929888,3.24
930644,2.74
931412,2.32
932172,1.96
932936,1.65
933692,1.40
934456,1.18
935220,1.74
935988,2.20
936740,2.58
937504,2.92
938268,3.21
939036,3.46
939804,3.28
940572,2.78
941328,2.35
942092,1.99
942852,1.68
943608,1.43
944372,1.21
945128,1.69
945884,2.15
946652,2.54
947408,2.89
948164,3.18
948916,3.43
949688,3.38
950448,2.84
951204,2.41
951956,2.05
952720,1.73
953484,1.46
954244,1.23
955016,1.62
955780,2.10
956544,2.50
957300,2.85
958068,3.15
958836,3.41
959612,3.43
960368,2.89
961128,2.44
961888,2.06
962644,1.74
963396,1.48
964160,1.25
964924,1.57
965688,2.06
966436,2.46
967200,2.82
967960,3.11
968724,3.37
969484,3.60
970248,2.94
971008,2.49
971764,2.11
972528,1.78
973292,1.51
974052,1.27
974812,1.50
975560,1.98
976320,2.40
977080,2.77
977836,3.07
978592,3.34
979356,3.57
980128,3.02
980880,2.56
981640,2.17
982404,1.83
983172,1.54
983932,1.30
984696,1.43
985460,1.94
986220,2.36
986972,2.73
987740,3.04
988492,3.32
989260,3.55
990016,3.09
990772,2.62
991540,2.21
992292,1.87
993052,1.58
993816,1.34
994584,1.36
995348,1.88
996096,2.31
996860,2.69
997624,3.01
998376,3.29
999132,3.53
999904,3.16
1000668,2.66
1001484,2.22
1002296,1.86
1003108,1.55
1003928,1.30
1004748,1.49
1005552,2.01
1006356,2.45
1007164,2.83
1007984,3.15
1008800,3.43
1009612,3.35
1010424,2.80
1011240,2.34
1012052,1.96
1012868,1.64
1013680,1.37
1014484,1.30
1015300,1.88
1016116,2.34
1016936,2.74
1017744,3.06
1018552,3.35
1019368,3.60
1020184,2.95
1021000,2.46
1021808,2.06
1022616,1.73
1023432,1.44
1024248,1.21
1025056,1.73
1025864,2.21
1026680,2.61
1027496,2.97
1028308,3.27
1029124,3.53
1029940,3.09
1030752,2.59
1031564,2.17
1032384,1.81
1033192,1.52
1034000,1.27
1034820,1.57
1035628,2.09
1036440,2.51
1037248,2.87
1038056,3.20
1038868,3.46
1039692,3.26
1040512,2.72
1041320,2.27
1042128,1.92
1042940,1.59
1043756,1.32
1044580,1.42
1045392,1.96
1046204,2.41
1047024,2.80
1047840,3.13
1048656,3.40
1049468,3.42
1050288,2.84
1051100,2.38
1051916,1.98
1052736,1.66
1053544,1.39
1054356,1.15
1055172,1.82
1055992,2.31
1056800,2.70
1057608,3.04
1058416,3.33
1059232,3.57
1060052,2.99
1060856,2.49
1061664,2.10
1062480,1.75
1063296,1.47
1064112,1.22
1064924,1.68
1065736,2.17
1066552,2.59
1067364,2.95
1068180,3.26
1068992,3.52
1069808,3.15
1070624,2.62
1071440,2.19
1072252,1.84
1073064,1.54
1073872,1.28
1074692,1.53
1075512,2.05
1076320,2.49
1077128,2.86
1077940,3.17
1078760,3.45
1079580,3.29
1080400,2.75
1081208,2.30
1082020,1.92
1082840,1.60
1083652,1.34
1084476,1.39
1085288,1.93
1086104,2.39
1086916,2.78
1087732,3.11
1088544,3.39
1089356,3.46
1090176,2.87
1090992,2.41
1091808,2.01
1092616,1.68
1093424,1.41
1094240,1.17
1095052,1.80
1095868,2.27
1096680,2.68
1097488,3.02
1098296,3.31
1099112,3.56
1099932,3.03
1100740,2.53
1101552,2.12
1102368,1.76
1103180,1.49
1104000,1.24
1104812,1.64
1105616,2.14
1106428,2.57
1107244,2.92
1108060,3.24
1108872,3.49
1109692,3.17
1110512,2.65
1111328,2.22
1112144,1.85
1112952,1.55
1113768,1.30
1114588,1.50
1115396,2.02
1116208,2.46
1117016,2.83
1117832,3.16
1118648,3.43
1119472,3.33
1120280,2.78
1121088,2.34
1121900,1.96
1122720,1.63
1123532,1.36
1124356,1.34
1125168,1.90
1125980,2.36
1126800,2.75
1127612,3.08
1128416,3.36
1129224,3.61
1130040,2.93
1130856,2.44
1131668,2.05
1132472,1.72
1133280,1.43
1134096,1.20
1134912,1.75
1135728,2.23
1136540,2.64
1137344,2.99
1138156,3.29
1138976,3.55
1139796,3.06
1140604,2.57
1141412,2.15
1142232,1.80
1143044,1.50
1143864,1.25
1144680,1.61
1145496,2.11
1146312,2.54
1147128,2.90
1147932,3.21
1148748,3.47
1149564,3.22
1150384,2.69
1151196,2.25
1152016,1.88
1152820,1.56
1153636,1.31
1154460,1.46
1155280,2.00
1156080,2.43
1156888,2.81
1157704,3.14
1158520,3.41
1159340,3.38
1160152,2.82
1160960,2.36
1161772,1.98
1162588,1.66
1163404,1.37
1164216,1.28
1165024,1.84
1165836,2.32
1166656,2.72
1167472,3.05
1168276,3.33
1169088,3.59
1169908,2.98
1170720,2.49
1171532,2.08
1172336,1.74
1173152,1.45
1173968,1.21
1174788,1.70
1175588,2.19
1176400,2.60
1177216,2.96
1178032,3.26
1178848,3.52
1179668,3.11
1180484,2.61
1181296,2.18
1182112,1.82
1182928,1.52
1183736,1.27
1184548,1.55
1185368,2.08
1186176,2.51
1186992,2.88
1187800,3.19
1188612,3.46
1189428,3.27
1190248,2.73
1191064,2.28
1191872,1.92
1192680,1.59
1193492,1.33
1194316,1.41
1195136,1.95
1195944,2.39
1196752,2.78
1197568,3.11
1198384,3.38
1199196,3.45
1200012,2.86
1200820,2.39
1201636,2.00
1202444,1.67
1203264,1.41
1204072,1.17
1204884,1.80
1205700,2.28
1206516,2.68
1207324,3.03
1208132,3.31
1208952,3.56
1209772,3.02
1210584,2.52
1211400,2.11
1212212,1.77
1213024,1.48
1213840,1.24
1214660,1.67
1215464,2.16
1216272,2.57
1217084,2.93
1217904,3.24
1218720,3.51
1219536,3.17
1220344,2.65
1221160,2.21
1221976,1.85
1222792,1.54
1223600,1.29
1224412,1.52
1225232,2.03
1226044,2.47
1226856,2.84
1227664,3.16
1228480,3.44
1229300,3.33
1230120,2.77
1230932,2.31
1231748,1.95
1232560,1.62
1233376,1.36
1234196,1.36
1235016,1.92
1235824,2.37
1236640,2.76
1237452,3.09
1238264,3.37
1239068,3.61
1239880,2.91
1240696,2.43
1241512,2.04
1242320,1.70
1243128,1.42
1243936,1.19
1244752,1.76
1245568,2.24
1246384,2.65
1247192,2.99
1248000,3.28
1248812,3.54
1249636,3.06
1250440,2.56
1251248,2.16
1252056,1.80
1252868,1.50
1253688,1.25
1254508,1.61
1255320,2.11
1256132,2.53
1256940,2.91
1257760,3.22
1258576,3.48
1259392,3.22
1260208,2.69
1261020,2.25
1261840,1.89
1262652,1.57
1263464,1.31
