Time,Voltage
2,1.10
3,0.93
4,1.67
5,2.25
6,2.74
7,3.14
8,3.48
9,3.75
10,3.98
11,4.15
12,3.58
13,2.89
14,2.33
15,1.87
16,1.50
17,1.21
18,0.97
19,0.77
20,1.03
21,1.72
22,2.29
23,2.77
24,3.17
25,3.50
26,3.76
27,3.99
28,4.07
29,3.27
30,2.64
31,2.13
32,1.71
33,1.37
34,1.10
35,0.88
36,0.70
37,1.29
38,1.93
39,2.46
40,2.91
41,3.29
42,3.60
43,3.85
44,4.06
45,3.75
46,3.04
47,2.45
48,1.96
49,1.57
50,1.27
51,1.01
52,0.82
53,0.79
54,1.53
55,2.14
56,2.63
57,3.06
58,3.41
59,3.69
60,3.92
61,4.12
62,3.47
63,2.81
64,2.26
65,1.81
66,1.46
67,1.17
68,0.93
69,0.75
70,1.07
71,1.75
72,2.32
73,2.80
74,3.19
75,3.52
76,3.78
77,4.00
78,3.97
79,3.22
80,2.60
81,2.09
82,1.68
83,1.34
84,1.08
85,0.86
86,0.70
87,1.33
88,1.98
89,2.50
90,2.95
91,3.32
92,3.62
93,3.87
94,4.07
95,3.69
96,2.99
97,2.40
98,1.93
99,1.55
100,1.24
101,0.99
102,0.79
103,0.86
104,1.58
105,2.18
106,2.67
107,3.09
108,3.43
109,3.71
110,3.95
111,4.13
112,3.42
113,2.77
114,2.23
115,1.78
116,1.44
117,1.14
118,0.92
119,0.74
120,1.14
121,1.80
122,2.37
123,2.83
124,3.22
125,3.54
126,3.80
127,4.01
128,3.91
129,3.17
130,2.56
131,2.06
132,1.66
133,1.32
134,1.06
135,0.86
136,0.67
137,1.40
138,2.01
139,2.55
140,2.99
141,3.34
142,3.64
143,3.88
144,4.08
145,3.62
146,2.94
147,2.38
148,1.90
149,1.52
150,1.23
151,0.98
152,0.79
153,0.93
154,1.64
155,2.22
156,2.72
157,3.13
158,3.46
159,3.73
160,3.95
161,4.14
162,3.36
163,2.72
164,2.19
165,1.76
166,1.41
167,1.13
168,0.90
169,0.72
170,1.20
171,1.86
172,2.41
173,2.87
174,3.25
175,3.56
176,3.82
177,4.03
178,3.85
179,3.12
180,2.51
181,2.03
182,1.62
183,1.30
184,1.04
185,0.84
186,0.65
187,1.45
188,2.07
189,2.60
190,3.01
191,3.37
192,3.66
193,3.90
194,4.09
195,3.57
196,2.89
197,2.33
198,1.88
199,1.50
200,1.21
201,0.95
202,0.77
203,0.98
204,1.69
205,2.26
206,2.75
207,3.15
208,3.49
209,3.75
210,3.97
211,4.10
212,3.30
213,2.68
214,2.15
215,1.73
216,1.38
217,1.11
218,0.89
219,0.71
220,1.25
221,1.91
222,2.45
223,2.90
224,3.27
225,3.58
226,3.84
227,4.04
228,3.78
229,3.07
230,2.48
231,1.98
232,1.59
233,1.28
234,1.02
235,0.82
236,0.76
237,1.51
238,2.12
239,2.61
240,3.05
241,3.39
242,3.68
243,3.92
244,4.11
245,3.50
246,2.84
247,2.29
248,1.84
249,1.47
250,1.18
251,0.95
252,0.76
253,1.05
254,1.74
255,2.30
256,2.78
257,3.18
258,3.50
259,3.77
260,3.98
261,4.01
262,3.26
263,2.63
264,2.12
265,1.69
266,1.36
267,1.09
268,0.87
269,0.70
270,1.30
271,1.96
272,2.49
273,2.93
274,3.29
275,3.60
276,3.86
277,4.06
278,3.72
279,3.01
280,2.43
281,1.96
282,1.56
283,1.26
284,1.01
285,0.81
286,0.83
287,1.56
288,2.16
289,2.66
290,3.06
291,3.42
292,3.70
293,3.94
294,4.13
295,3.45
296,2.80
297,2.26
298,1.81
299,1.44
300,1.17
301,0.92
302,0.74
303,1.10
304,1.78
305,2.34
306,2.81
307,3.21
308,3.52
309,3.79
310,4.01
311,3.95
312,3.20
313,2.59
314,2.07
315,1.67
316,1.34
317,1.07
318,0.86
319,0.69
320,1.36
321,1.99
322,2.53
323,2.96
324,3.32
325,3.63
326,3.88
327,4.09
328,3.66
329,2.96
330,2.39
331,1.93
332,1.53
333,1.24
334,0.99
335,0.78
336,0.90
337,1.60
338,2.20
339,2.69
340,3.10
341,3.45
342,3.72
343,3.95
344,4.14
345,3.39
346,2.74
347,2.21
348,1.77
349,1.42
350,1.13
351,0.91
352,0.73
353,1.16
354,1.84
355,2.39
356,2.84
357,3.23
358,3.55
359,3.81
360,4.03
361,3.88
362,3.15
363,2.54
364,2.04
365,1.63
366,1.30
367,1.05
368,0.84
369,0.67
370,1.43
371,2.04
372,2.57
373,3.00
374,3.36
375,3.65
376,3.90
377,4.09
378,3.60
379,2.92
380,2.35
381,1.89
382,1.52
383,1.21
384,0.97
385,0.78
386,0.96
387,1.66
388,2.23
389,2.73
390,3.13
391,3.47
392,3.74
393,3.97
394,4.16
395,3.33
396,2.70
397,2.17
398,1.74
399,1.39
400,1.11
401,0.90
402,0.72
403,1.22
404,1.89
405,2.42
406,2.88
407,3.26
408,3.58
409,3.83
410,4.04
411,3.82
412,3.09
413,2.49
414,2.00
415,1.60
416,1.29
417,1.04
418,0.83
419,0.72
420,1.48
421,2.09
422,2.61
423,3.03
424,3.38
425,3.67
426,3.91
427,4.11
428,3.53
429,2.87
430,2.31
431,1.86
432,1.49
433,1.20
434,0.95
435,0.76
436,1.02
437,1.71
438,2.29
439,2.76
440,3.16
441,3.49
442,3.77
443,3.99
444,4.04
445,3.27
446,2.65
447,2.13
448,1.71
449,1.37
450,1.10
451,0.88
452,0.71
453,1.29
454,1.93
455,2.47
456,2.92
457,3.28
458,3.60
459,3.85
460,4.05
461,3.75
462,3.04
463,2.45
464,1.97
465,1.58
466,1.27
467,1.02
468,0.81
469,0.79
470,1.52
471,2.13
472,2.64
473,3.06
474,3.41
475,3.70
476,3.93
477,4.12
478,3.48
479,2.81
480,2.26
481,1.82
482,1.46
483,1.17
484,0.94
485,0.75
486,1.09
487,1.75
488,2.33
489,2.80
490,3.19
491,3.52
492,3.78
493,4.00
494,3.99
495,3.23
496,2.61
497,2.10
498,1.69
499,1.34
500,1.08
501,0.87
502,0.69
503,1.33
504,1.97
505,2.51
506,2.96
507,3.32
508,3.62
509,3.86
510,4.06
511,3.68
512,2.98
513,2.40
514,1.94
515,1.55
516,1.24
517,1.00
518,0.80
519,0.87
520,1.57
521,2.17
522,2.68
523,3.09
524,3.43
525,3.72
526,3.94
527,4.13
528,3.42
529,2.77
530,2.23
531,1.79
532,1.43
533,1.14
534,0.92
535,0.73
536,1.14
537,1.81
538,2.37
539,2.83
540,3.23
541,3.54
542,3.80
543,4.01
544,3.91
545,3.17
546,2.56
547,2.06
548,1.66
549,1.33
550,1.07
551,0.86
552,0.68
553,1.40
554,2.02
555,2.55
556,2.99
557,3.34
558,3.63
559,3.89
560,4.08
561,3.62
562,2.94
563,2.37
564,1.90
565,1.53
566,1.22
567,0.97
568,0.78
569,0.93
570,1.63
571,2.22
572,2.71
573,3.13
574,3.46
575,3.73
576,3.95
577,4.14
578,3.36
579,2.71
580,2.19
581,1.76
582,1.42
583,1.13
584,0.90
585,0.72
586,1.20
587,1.86
588,2.41
589,2.88
590,3.25
591,3.56
592,3.82
593,4.03
594,3.85
595,3.11
596,2.51
597,2.03
598,1.62
599,1.30
600,1.04
601,0.83
602,0.65
603,1.45
604,2.07
605,2.59
606,3.02
607,3.37
608,3.66
609,3.90
610,4.09
611,3.57
612,2.89
613,2.33
614,1.86
615,1.50
616,1.20
617,0.96
618,0.77
619,1.00
620,1.68
621,2.27
622,2.75
623,3.15
624,3.48
625,3.75
626,3.97
627,4.09
628,3.31
629,2.67
630,2.16
631,1.73
632,1.39
633,1.11
634,0.89
635,0.72
636,1.27
637,1.91
638,2.45
639,2.90
640,3.28
641,3.59
642,3.84
643,4.05
644,3.78
645,3.06
646,2.47
647,1.99
648,1.60
649,1.28
650,1.03
651,0.82
652,0.76
653,1.51
654,2.12
655,2.63
656,3.04
657,3.39
658,3.68
659,3.91
660,4.12
661,3.50
662,2.85
663,2.29
664,1.83
665,1.47
666,1.19
667,0.95
668,0.77
669,1.04
670,1.73
671,2.31
672,2.78
673,3.18
674,3.50
675,3.77
676,3.99
677,4.02
678,3.25
679,2.62
680,2.12
681,1.70
682,1.36
683,1.09
684,0.87
685,0.70
686,1.31
687,1.96
688,2.49
689,2.94
690,3.30
691,3.61
692,3.85
693,4.05
694,3.71
695,3.02
696,2.43
697,1.96
698,1.57
699,1.26
700,1.01
701,0.81
702,0.82
703,1.56
704,2.16
705,2.66
706,3.07
707,3.42
708,3.70
709,3.93
710,4.13
711,3.45
712,2.80
713,2.25
714,1.81
715,1.45
716,1.16
717,0.92
718,0.75
719,1.10
720,1.79
721,2.35
722,2.82
723,3.20
724,3.51
725,3.79
726,4.01
727,3.95
728,3.20
729,2.59
730,2.08
731,1.67
732,1.33
733,1.07
734,0.86
735,0.69
736,1.36
737,1.99
738,2.53
739,2.96
740,3.32
741,3.63
742,3.87
743,4.08
744,3.66
745,2.96
746,2.39
747,1.93
748,1.54
749,1.24
750,0.98
751,0.79
752,0.89
753,1.60
754,2.19
755,2.69
756,3.10
757,3.44
758,3.72
759,3.95
760,4.13
761,3.40
762,2.74
763,2.20
764,1.78
765,1.43
766,1.14
767,0.91
768,0.73
769,1.17
770,1.83
771,2.39
772,2.85
773,3.24
774,3.56
775,3.80
776,4.03
777,3.89
778,3.14
779,2.54
780,2.04
781,1.63
782,1.32
783,1.05
784,0.84
785,0.66
786,1.42
787,2.04
788,2.57
789,3.00
790,3.36
791,3.64
792,3.90
793,4.09
794,3.61
795,2.91
796,2.36
797,1.89
798,1.52
799,1.21
800,0.97
801,0.78
802,0.95
803,1.67
804,2.24
805,2.73
806,3.14
807,3.47
808,3.74
809,3.97
810,4.15
811,3.34
812,2.70
813,2.17
814,1.74
815,1.39
816,1.11
817,0.90
818,0.72
819,1.23
820,1.88
821,2.42
822,2.89
823,3.26
824,3.57
825,3.83
826,4.05
827,3.82
828,3.09
829,2.49
830,2.00
831,1.61
832,1.29
833,1.03
834,0.83
835,0.72
836,1.48
837,2.09
838,2.60
839,3.03
840,3.38
841,3.68
842,3.92
843,4.11
844,3.54
845,2.86
846,2.31
847,1.86
848,1.49
849,1.19
850,0.95
851,0.76
852,1.02
853,1.71
854,2.29
855,2.77
856,3.16
857,3.49
858,3.77
859,3.99
860,4.05
861,3.27
862,2.65
863,2.13
864,1.71
865,1.37
866,1.10
867,0.89
868,0.70
869,1.29
870,1.93
871,2.47
872,2.91
873,3.29
874,3.60
875,3.86
876,4.06
877,3.75
878,3.04
879,2.46
880,1.97
881,1.59
882,1.27
883,1.02
884,0.82
885,0.79
886,1.53
887,2.14
888,2.64
889,3.06
890,3.40
891,3.70
892,3.92
893,4.13
894,3.48
895,2.81
896,2.27
897,1.82
898,1.46
899,1.17
900,0.94
901,0.75
902,1.08
903,1.76
904,2.33
905,2.81
906,3.19
907,3.52
908,3.78
909,4.00
910,3.98
911,3.23
912,2.61
913,2.10
914,1.68
915,1.36
916,1.08
917,0.87
918,0.69
919,1.34
920,1.97
921,2.51
922,2.95
923,3.32
924,3.63
925,3.87
926,4.07
927,3.70
928,2.99
929,2.41
930,1.95
931,1.56
932,1.25
933,1.00
934,0.80
935,0.86
936,1.58
937,2.18
938,2.68
939,3.09
940,3.44
941,3.71
942,3.94
943,4.13
944,3.41
945,2.76
946,2.23
947,1.78
948,1.44
949,1.15
950,0.93
951,0.75
952,1.14
953,1.81
954,2.38
955,2.83
956,3.23
957,3.54
958,3.79
959,4.01
960,3.91
961,3.16
962,2.56
963,2.06
964,1.65
965,1.33
966,1.07
967,0.85
968,0.68
969,1.40
970,2.03
971,2.55
972,2.99
973,3.34
974,3.64
975,3.88
976,4.08
977,3.64
978,2.94
979,2.38
980,1.90
981,1.53
982,1.23
983,0.98
984,0.79
985,0.93
986,1.63
987,2.22
988,2.71
989,3.12
990,3.46
991,3.73
992,3.95
993,4.14
994,3.36
995,2.71
996,2.19
997,1.76
998,1.42
999,1.12
1000,0.91
1001,0.72
1002,1.20
1003,1.86
1004,2.40
1005,2.87
1006,3.25
1007,3.56
1008,3.82
1009,4.03
1010,3.85
1011,3.12
1012,2.52
1013,2.03
1014,1.63
1015,1.30
1016,1.04
1017,0.84
1018,0.65
1019,1.45
1020,2.07
1021,2.59
1022,3.01
1023,3.37
1024,3.67
1025,3.90
1026,4.09
1027,3.57
1028,2.89
1029,2.33
1030,1.88
1031,1.50
1032,1.21
1033,0.96
1034,0.77
1035,0.99
1036,1.69
1037,2.26
1038,2.75
1039,3.15
1040,3.48
1041,3.75
1042,3.98
1043,4.09
1044,3.30
1045,2.67
1046,2.16
1047,1.73
1048,1.39
1049,1.11
1050,0.89
1051,0.71
1052,1.25
1053,1.91
1054,2.45
1055,2.90
1056,3.27
1057,3.58
1058,3.84
1059,4.05
1060,3.78
1061,3.07
1062,2.48
1063,2.00
1064,1.60
1065,1.28
1066,1.03
1067,0.82
1068,0.76
1069,1.50
1070,2.11
1071,2.62
1072,3.04
1073,3.40
1074,3.68
1075,3.91
1076,4.11
1077,3.50
1078,2.83
1079,2.29
1080,1.84
1081,1.47
1082,1.19
1083,0.95
1084,0.76
1085,1.05
1086,1.74
1087,2.31
1088,2.79
1089,3.18
1090,3.50
1091,3.77
1092,3.99
1093,4.02
1094,3.25
1095,2.63
1096,2.13
1097,1.70
1098,1.36
1099,1.09
1100,0.88
1101,0.71
1102,1.31
1103,1.96
1104,2.49
1105,2.94
1106,3.30
1107,3.61
1108,3.86
1109,4.07
1110,3.70
1111,3.02
1112,2.44
1113,1.96
1114,1.56
1115,1.26
1116,1.01
1117,0.81
1118,0.82
1119,1.56
1120,2.16
1121,2.65
1122,3.08
1123,3.42
1124,3.70
1125,3.93
1126,4.13
1127,3.45
1128,2.80
1129,2.26
1130,1.81
1131,1.46
1132,1.17
1133,0.93
1134,0.75
1135,1.11
1136,1.78
1137,2.35
1138,2.82
1139,3.21
1140,3.52
1141,3.79
1142,4.00
1143,3.95
1144,3.20
1145,2.59
1146,2.08
1147,1.66
1148,1.34
1149,1.08
1150,0.86
1151,0.69
1152,1.37
1153,2.00
1154,2.52
1155,2.97
1156,3.33
1157,3.63
1158,3.87
1159,4.07
1160,3.67
1161,2.96
1162,2.39
1163,1.92
1164,1.53
1165,1.23
1166,0.99
1167,0.79
1168,0.89
1169,1.61
1170,2.20
1171,2.69
1172,3.10
1173,3.44
1174,3.72
1175,3.95
1176,4.14
1177,3.39
1178,2.75
1179,2.22
1180,1.77
1181,1.42
1182,1.14
1183,0.91
1184,0.73
1185,1.17
1186,1.84
1187,2.39
1188,2.85
1189,3.23
1190,3.56
1191,3.81
1192,4.02
1193,3.89
1194,3.15
1195,2.55
1196,2.05
1197,1.64
1198,1.31
1199,1.06
1200,0.84
1201,0.67
1202,1.42
1203,2.05
1204,2.56
1205,3.00
1206,3.35
1207,3.66
1208,3.89
1209,4.09
1210,3.61
1211,2.92
1212,2.36
1213,1.90
1214,1.52
1215,1.22
1216,0.98
1217,0.78
1218,0.96
1219,1.66
1220,2.24
1221,2.73
1222,3.13
1223,3.47
1224,3.74
1225,3.96
1226,4.16
1227,3.34
1228,2.69
1229,2.17
1230,1.74
1231,1.40
1232,1.12
1233,0.90
1234,0.72
1235,1.23
1236,1.89
1237,2.42
1238,2.88
1239,3.26
1240,3.57
1241,3.82
1242,4.04
1243,3.81
1244,3.09
1245,2.49
1246,2.00
1247,1.61
1248,1.30
1249,1.03
1250,0.83
1251,0.72
1252,1.48
1253,2.09
1254,2.61
1255,3.03
1256,3.37
1257,3.68
1258,3.91
1259,4.11
1260,3.54
1261,2.86
1262,2.31
1263,1.86
1264,1.48
1265,1.20
1266,0.96
1267,0.77
1268,1.02
1269,1.71
1270,2.29
1271,2.76
1272,3.16
1273,3.50
1274,3.76
1275,3.98
1276,4.05
1277,3.28
1278,2.65
1279,2.13
1280,1.71
1281,1.37
1282,1.10
1283,0.88
1284,0.71
1285,1.29
1286,1.94
1287,2.47
1288,2.92
1289,3.29
1290,3.60
1291,3.86
1292,4.06
1293,3.75
1294,3.03
1295,2.45
1296,1.97
1297,1.58
1298,1.27
1299,1.03
1300,0.82
1301,0.80
1302,1.53
1303,2.14
1304,2.63
1305,3.05
1306,3.41
1307,3.70
1308,3.93
1309,4.12
1310,3.48
1311,2.82
1312,2.27
1313,1.82
1314,1.46
1315,1.18
1316,0.94
1317,0.75
1318,1.08
1319,1.76
1320,2.32
1321,2.80
1322,3.19
1323,3.51
1324,3.79
1325,4.00
1326,3.98
1327,3.22
1328,2.61
1329,2.10
1330,1.68
1331,1.35
1332,1.09
1333,0.87
1334,0.70
1335,1.34
1336,1.98
1337,2.51
1338,2.95
1339,3.32
1340,3.62
1341,3.88
1342,4.07
1343,3.69
1344,2.98
1345,2.41
1346,1.94
1347,1.56
1348,1.25
1349,1.00
1350,0.80
1351,0.86
1352,1.57
1353,2.17
1354,2.68
1355,3.09
1356,3.44
1357,3.71
1358,3.94
1359,4.13
1360,3.42
1361,2.76
1362,2.23
1363,1.79
1364,1.43
1365,1.15
1366,0.93
1367,0.75
1368,1.14
1369,1.81
1370,2.37
1371,2.83
1372,3.22
1373,3.54
1374,3.80
1375,4.01
1376,3.91
1377,3.18
1378,2.56
1379,2.06
1380,1.65
1381,1.33
1382,1.07
1383,0.86
1384,0.69
1385,1.39
1386,2.02
1387,2.54
1388,2.98
1389,3.34
1390,3.65
1391,3.89
1392,4.08
1393,3.63
1394,2.94
1395,2.37
1396,1.91
1397,1.53
1398,1.23
1399,0.98
1400,0.79
1401,0.92
1402,1.64
1403,2.22
1404,2.72
1405,3.13
1406,3.46
1407,3.73
1408,3.96
1409,4.14
1410,3.36
1411,2.72
1412,2.19
1413,1.76
1414,1.41
1415,1.13
1416,0.90
1417,0.72
1418,1.20
1419,1.85
1420,2.41
1421,2.87
1422,3.25
1423,3.56
1424,3.82
1425,4.03
1426,3.84
1427,3.11
1428,2.52
1429,2.02
1430,1.63
1431,1.30
1432,1.04
1433,0.84
1434,0.65
1435,1.45
1436,2.06
1437,2.59
1438,3.02
1439,3.37
1440,3.66
1441,3.91
1442,4.10
1443,3.57
1444,2.89
1445,2.34
1446,1.88
1447,1.51
1448,1.21
1449,0.96
1450,0.78
1451,0.99
1452,1.68
1453,2.26
1454,2.75
1455,3.14
1456,3.48
1457,3.75
1458,3.97
1459,4.09
1460,3.30
1461,2.67
1462,2.15
1463,1.73
1464,1.39
1465,1.10
1466,0.89
1467,0.71
1468,1.25
1469,1.90
1470,2.45
1471,2.90
1472,3.28
1473,3.59
1474,3.84
1475,4.04
1476,3.78
1477,3.06
1478,2.47
1479,1.99
1480,1.60
1481,1.29
1482,1.02
1483,0.83
1484,0.76
1485,1.50
1486,2.11
1487,2.62
1488,3.04
1489,3.39
1490,3.68
1491,3.91
1492,4.11
1493,3.51
1494,2.84
1495,2.29
1496,1.85
1497,1.48
1498,1.19
1499,0.95
1500,0.77
1501,1.05
1502,1.74
1503,2.30
1504,2.79
1505,3.18
1506,3.50
1507,3.77
1508,3.99
1509,4.01
1510,3.25
1511,2.62
1512,2.12
1513,1.70
1514,1.37
1515,1.09
1516,0.87
1517,0.71
1518,1.31
1519,1.95
1520,2.49
1521,2.93
1522,3.30
1523,3.61
1524,3.85
1525,4.07
1526,3.72
1527,3.02
1528,2.43
1529,1.96
1530,1.57
1531,1.26
1532,1.01
1533,0.81
1534,0.83
1535,1.55
1536,2.16
1537,2.66
1538,3.08
1539,3.42
1540,3.70
1541,3.93
1542,4.13
1543,3.45
1544,2.80
1545,2.26
1546,1.80
1547,1.46
1548,1.17
1549,0.93
1550,0.75
1551,1.11
1552,1.79
1553,2.35
1554,2.81
1555,3.20
1556,3.53
1557,3.79
1558,4.01
1559,3.95
1560,3.20
1561,2.58
1562,2.09
1563,1.67
1564,1.34
1565,1.08
1566,0.86
1567,0.70
1568,1.37
1569,2.01
1570,2.53
1571,2.97
1572,3.32
1573,3.63
1574,3.88
1575,4.08
1576,3.65
1577,2.97
1578,2.40
1579,1.93
1580,1.54
1581,1.23
1582,0.99
1583,0.79
1584,0.89
1585,1.61
1586,2.20
1587,2.69
1588,3.10
1589,3.44
1590,3.72
1591,3.95
1592,4.13
1593,3.39
1594,2.75
1595,2.21
1596,1.78
1597,1.43
1598,1.14
1599,0.91
1600,0.74
1601,1.18
1602,1.83
1603,2.39
1604,2.84
1605,3.23
1606,3.54
1607,3.81
1608,4.02
1609,3.88
1610,3.15
1611,2.55
1612,2.04
1613,1.64
1614,1.31
1615,1.06
1616,0.84
1617,0.67
1618,1.43
1619,2.04
1620,2.57
1621,2.99
1622,3.35
1623,3.66
1624,3.90
1625,4.09
1626,3.60
1627,2.92
1628,2.35
1629,1.89
1630,1.52
1631,1.21
1632,0.97
1633,0.79
1634,0.96
1635,1.66
1636,2.24
1637,2.73
1638,3.13
1639,3.47
1640,3.73
1641,3.97
1642,4.16
1643,3.34
1644,2.70
1645,2.17
1646,1.74
1647,1.40
1648,1.12
1649,0.90
1650,0.72
1651,1.23
1652,1.89
1653,2.42
1654,2.88
1655,3.26
1656,3.57
1657,3.83
1658,4.04
1659,3.83
1660,3.10
1661,2.50
1662,2.01
1663,1.61
1664,1.29
1665,1.04
1666,0.84
1667,0.72
1668,1.48
1669,2.10
1670,2.61
1671,3.03
1672,3.38
1673,3.68
1674,3.91
1675,4.11
1676,3.55
1677,2.87
1678,2.31
1679,1.86
1680,1.48
1681,1.20
1682,0.96
1683,0.77
1684,1.02
1685,1.71
1686,2.28
1687,2.77
1688,3.16
1689,3.49
1690,3.76
1691,3.98
1692,4.07
1693,3.29
1694,2.66
1695,2.14
1696,1.71
1697,1.38
1698,1.10
1699,0.89
1700,0.71
1701,1.29
1702,1.93
1703,2.46
1704,2.91
1705,3.28
1706,3.59
1707,3.85
1708,4.07
1709,3.75
1710,3.04
1711,2.45
1712,1.97
1713,1.58
1714,1.27
1715,1.02
1716,0.82
1717,0.80
1718,1.52
1719,2.13
1720,2.64
1721,3.06
1722,3.41
1723,3.70
1724,3.93
1725,4.12
1726,3.48
1727,2.82
1728,2.27
1729,1.82
1730,1.46
1731,1.17
1732,0.94
1733,0.76
1734,1.09
1735,1.76
1736,2.32
1737,2.80
1738,3.20
1739,3.51
1740,3.78
1741,4.00
1742,3.98
1743,3.22
1744,2.61
1745,2.10
1746,1.68
1747,1.35
1748,1.09
1749,0.87
1750,0.69
1751,1.33
1752,1.98
1753,2.50
1754,2.95
1755,3.32
1756,3.63
1757,3.88
1758,4.06
1759,3.70
1760,2.99
1761,2.42
1762,1.95
1763,1.56
1764,1.24
1765,1.00
1766,0.81
1767,0.86
1768,1.59
1769,2.17
1770,2.67
1771,3.09
1772,3.43
1773,3.72
1774,3.94
1775,4.13
1776,3.42
1777,2.77
1778,2.23
1779,1.79
1780,1.44
1781,1.15
1782,0.93
1783,0.74
1784,1.14
1785,1.82
1786,2.37
1787,2.83
1788,3.22
1789,3.54
1790,3.80
1791,4.02
1792,3.91
1793,3.17
1794,2.56
1795,2.06
1796,1.65
1797,1.33
1798,1.07
1799,0.85
1800,0.68
1801,1.39
1802,2.02
1803,2.55
1804,2.99
1805,3.35
1806,3.65
1807,3.89
1808,4.09
1809,3.63
1810,2.94
1811,2.37
1812,1.91
1813,1.53
1814,1.23
1815,0.99
1816,0.79
1817,0.92
1818,1.64
1819,2.22
1820,2.71
1821,3.12
1822,3.46
1823,3.74
1824,3.96
1825,4.14
1826,3.36
1827,2.72
1828,2.19
1829,1.76
1830,1.42
1831,1.14
1832,0.90
1833,0.72
1834,1.19
1835,1.86
1836,2.40
1837,2.87
1838,3.25
1839,3.56
1840,3.82
1841,4.03
1842,3.84
1843,3.12
1844,2.51
1845,2.03
1846,1.63
1847,1.30
1848,1.04
1849,0.84
1850,0.65
1851,1.46
1852,2.07
1853,2.59
1854,3.02
1855,3.38
1856,3.66
1857,3.91
1858,4.10
1859,3.57
1860,2.89
1861,2.33
1862,1.87
1863,1.50
1864,1.21
1865,0.96
1866,0.77
1867,0.98
1868,1.69
1869,2.26
1870,2.75
1871,3.15
1872,3.48
1873,3.74
1874,3.97
1875,4.09
1876,3.31
1877,2.68
1878,2.16
1879,1.74
1880,1.40
1881,1.11
1882,0.89
1883,0.71
1884,1.26
1885,1.90
1886,2.45
1887,2.91
1888,3.28
1889,3.58
1890,3.84
1891,4.05
1892,3.79
1893,3.07
1894,2.47
1895,1.99
1896,1.60
1897,1.28
1898,1.03
1899,0.82
1900,0.76
1901,1.51
1902,2.11
1903,2.62
1904,3.04
1905,3.39
1906,3.68
1907,3.92
1908,4.11
1909,3.51
1910,2.83
1911,2.30
1912,1.85
1913,1.47
1914,1.19
1915,0.95
1916,0.76
1917,1.05
1918,1.73
1919,2.30
1920,2.79
1921,3.18
1922,3.50
1923,3.77
1924,3.99
1925,4.02
1926,3.26
1927,2.62
1928,2.12
1929,1.71
1930,1.36
1931,1.09
1932,0.87
1933,0.70
1934,1.31
1935,1.96
1936,2.49
1937,2.93
1938,3.30
1939,3.60
1940,3.85
1941,4.05
1942,3.72
1943,3.02
1944,2.44
1945,1.96
1946,1.56
1947,1.26
1948,1.02
1949,0.82
1950,0.83
1951,1.56
1952,2.16
1953,2.66
1954,3.07
1955,3.42
1956,3.70
1957,3.94
1958,4.12
1959,3.45
1960,2.79
1961,2.26
1962,1.81
1963,1.45
1964,1.16
1965,0.92
1966,0.75
1967,1.11
1968,1.79
1969,2.36
1970,2.82
1971,3.21
1972,3.53
1973,3.79
1974,4.00
1975,3.94
1976,3.20
1977,2.59
1978,2.08
1979,1.67
1980,1.34
1981,1.08
1982,0.86
1983,0.70
1984,1.37
1985,2.00
1986,2.53
1987,2.97
1988,3.33
1989,3.63
1990,3.87
1991,4.08
1992,3.66
1993,2.96
1994,2.40
1995,1.93
1996,1.55
1997,1.25
1998,0.99
1999,0.79
2000,0.89
2001,1.61
2002,2.20
2003,2.69
2004,3.11
2005,3.44
2006,3.72
2007,3.95
2008,4.13
2009,3.39
2010,2.74
2011,2.21
2012,1.78
2013,1.42
2014,1.14
2015,0.91
2016,0.73
2017,1.17
2018,1.84
2019,2.39
2020,2.85
2021,3.24
2022,3.55
2023,3.81
2024,4.02
2025,3.89
2026,3.16
2027,2.54
2028,2.05
2029,1.64
2030,1.32
2031,1.06
2032,0.85
2033,0.66
2034,1.43
2035,2.05
2036,2.56
2037,3.00
2038,3.35
2039,3.65
2040,3.89
2041,4.08
2042,3.61
2043,2.92
2044,2.36
2045,1.89
2046,1.52
2047,1.22
2048,0.98
2049,0.79
2050,0.96
2051,1.66
2052,2.24
2053,2.73
2054,3.14
2055,3.47
2056,3.74
2057,3.96
2058,4.15
2059,3.34
2060,2.70
2061,2.17
2062,1.74
2063,1.40
2064,1.12
2065,0.90
2066,0.73
2067,1.24
2068,1.88
2069,2.43
2070,2.88
2071,3.26
2072,3.57
2073,3.83
2074,4.04
2075,3.82
2076,3.10
2077,2.50
2078,2.01
2079,1.61
2080,1.29
2081,1.04
2082,0.83
2083,0.72
2084,1.48
2085,2.09
2086,2.61
2087,3.02
2088,3.38
2089,3.67
2090,3.91
2091,4.11
2092,3.54
2093,2.86
2094,2.30
2095,1.85
2096,1.49
2097,1.19
2098,0.96
2099,0.77
2100,1.02
2101,1.71
2102,2.29
2103,2.76
2104,3.16
2105,3.49
2106,3.76
2107,3.98
2108,4.06
2109,3.28
2110,2.66
